freq,psd_x,psd_y,psd_z,psd_xyz
0.0,2.008e+02,1.232e+02,2.600e+01,3.500e+02
1.5,1.180e+02,7.610e+01,6.202e+01,2.561e+02
3.1,1.406e+01,1.324e+01,3.459e+01,6.190e+01
4.6,1.841e+02,1.053e+02,2.436e+01,3.138e+02
6.2,6.859e+02,3.687e+02,2.206e+01,1.077e+03
7.7,1.159e+03,6.102e+02,2.076e+01,1.790e+03
9.2,1.706e+03,8.784e+02,2.087e+01,2.605e+03
10.8,2.421e+03,1.218e+03,2.575e+01,3.665e+03
12.3,3.410e+03,1.744e+03,3.144e+01,5.185e+03
13.8,4.655e+03,2.412e+03,3.433e+01,7.101e+03
15.4,6.100e+03,3.143e+03,3.624e+01,9.279e+03
16.9,7.807e+03,3.975e+03,3.725e+01,1.182e+04
18.5,9.803e+03,5.006e+03,3.440e+01,1.484e+04
20.0,1.181e+04,6.132e+03,3.455e+01,1.798e+04
21.5,1.375e+04,7.368e+03,3.874e+01,2.116e+04
23.1,1.630e+04,9.191e+03,3.457e+01,2.552e+04
24.6,1.963e+04,1.153e+04,3.171e+01,3.120e+04
26.1,2.419e+04,1.436e+04,2.892e+01,3.858e+04
27.7,3.053e+04,1.782e+04,2.528e+01,4.838e+04
29.2,3.950e+04,2.281e+04,3.041e+01,6.234e+04
30.8,5.353e+04,3.153e+04,5.670e+01,8.512e+04
32.3,7.498e+04,4.533e+04,1.133e+02,1.204e+05
33.8,1.074e+05,6.543e+04,2.027e+02,1.731e+05
35.4,1.553e+05,9.779e+04,3.494e+02,2.535e+05
36.9,2.203e+05,1.472e+05,6.860e+02,3.682e+05
38.5,3.074e+05,2.157e+05,1.292e+03,5.244e+05
40.0,3.808e+05,2.827e+05,2.262e+03,6.658e+05
41.5,3.671e+05,2.834e+05,3.145e+03,6.536e+05
43.1,2.753e+05,2.120e+05,3.345e+03,4.906e+05
44.6,1.898e+05,1.404e+05,3.283e+03,3.335e+05
46.1,1.373e+05,9.710e+04,3.504e+03,2.379e+05
47.7,1.015e+05,7.031e+04,3.658e+03,1.755e+05
49.2,7.434e+04,5.022e+04,3.743e+03,1.283e+05
50.8,5.445e+04,3.741e+04,3.897e+03,9.576e+04
52.3,4.122e+04,3.092e+04,4.180e+03,7.632e+04
53.8,3.115e+04,2.539e+04,4.617e+03,6.115e+04
55.4,2.312e+04,1.918e+04,4.988e+03,4.728e+04
56.9,1.647e+04,1.268e+04,5.339e+03,3.449e+04
58.4,1.089e+04,7.488e+03,7.120e+03,2.550e+04
60.0,6.591e+03,5.238e+03,1.027e+04,2.210e+04
61.5,4.855e+03,3.839e+03,1.403e+04,2.273e+04
63.1,6.305e+03,3.068e+03,1.901e+04,2.839e+04
64.6,1.189e+04,4.027e+03,2.601e+04,4.193e+04
66.1,2.445e+04,8.247e+03,3.658e+04,6.928e+04
67.7,5.054e+04,1.907e+04,5.292e+04,1.225e+05
69.2,1.171e+05,4.940e+04,8.261e+04,2.491e+05
70.8,2.347e+05,1.068e+05,1.150e+05,4.566e+05
72.3,3.140e+05,1.501e+05,1.271e+05,5.912e+05
73.8,3.017e+05,1.484e+05,1.136e+05,5.637e+05
75.4,2.446e+05,1.248e+05,8.826e+04,4.576e+05
76.9,1.855e+05,9.889e+04,6.452e+04,3.489e+05
78.4,1.461e+05,7.735e+04,4.752e+04,2.710e+05
80.0,1.307e+05,6.198e+04,3.767e+04,2.303e+05
81.5,1.170e+05,5.251e+04,3.085e+04,2.003e+05
83.1,9.931e+04,4.811e+04,2.585e+04,1.733e+05
84.6,8.596e+04,4.749e+04,2.355e+04,1.570e+05
86.1,7.212e+04,4.469e+04,2.131e+04,1.381e+05
87.7,5.940e+04,4.029e+04,1.925e+04,1.189e+05
89.2,4.882e+04,3.597e+04,1.778e+04,1.026e+05
90.7,3.986e+04,3.162e+04,1.667e+04,8.815e+04
92.3,3.118e+04,2.726e+04,1.570e+04,7.415e+04
93.8,2.372e+04,2.368e+04,1.543e+04,6.283e+04
95.4,2.239e+04,1.908e+04,1.431e+04,5.578e+04
96.9,3.297e+04,1.258e+04,1.141e+04,5.696e+04
98.4,5.402e+04,5.518e+03,7.694e+03,6.723e+04
100.0,6.039e+04,2.000e+03,4.469e+03,6.686e+04
101.5,4.778e+04,6.218e+03,3.899e+03,5.789e+04
103.0,4.001e+04,1.315e+04,5.166e+03,5.833e+04
104.6,4.509e+04,1.823e+04,5.610e+03,6.894e+04
106.1,5.704e+04,2.507e+04,5.649e+03,8.776e+04
107.7,7.396e+04,3.170e+04,5.359e+03,1.110e+05
109.2,9.686e+04,4.246e+04,4.763e+03,1.441e+05
110.7,1.247e+05,5.682e+04,4.029e+03,1.856e+05
112.3,1.296e+05,5.880e+04,2.826e+03,1.912e+05
113.8,1.227e+05,5.598e+04,1.901e+03,1.806e+05
115.4,1.156e+05,5.381e+04,1.331e+03,1.708e+05
116.9,1.091e+05,5.134e+04,9.424e+02,1.614e+05
118.4,9.987e+04,4.633e+04,6.704e+02,1.469e+05
120.0,9.687e+04,4.318e+04,5.766e+02,1.406e+05
121.5,1.067e+05,4.611e+04,5.587e+02,1.534e+05
123.0,1.059e+05,4.555e+04,5.442e+02,1.520e+05
124.6,1.039e+05,4.398e+04,6.589e+02,1.486e+05
126.1,1.064e+05,4.465e+04,8.970e+02,1.519e+05
127.7,1.059e+05,4.763e+04,9.836e+02,1.545e+05
129.2,1.035e+05,4.964e+04,1.053e+03,1.542e+05
130.7,9.996e+04,5.003e+04,1.163e+03,1.511e+05
132.3,7.553e+04,3.893e+04,9.731e+02,1.154e+05
133.8,1.667e+04,8.984e+03,2.388e+02,2.590e+04
135.3,9.786e+02,9.219e+02,4.340e+01,1.944e+03
136.9,7.771e+02,7.904e+02,4.173e+01,1.609e+03
138.4,7.507e+02,7.487e+02,4.312e+01,1.542e+03
140.0,7.953e+02,7.301e+02,5.345e+01,1.579e+03
141.5,8.702e+02,7.259e+02,7.835e+01,1.674e+03
143.0,1.168e+03,7.511e+02,1.417e+02,2.061e+03
144.6,1.719e+04,1.154e+03,5.970e+02,1.894e+04
146.1,6.171e+04,2.397e+03,1.695e+03,6.581e+04
147.7,1.552e+04,1.343e+03,5.561e+02,1.742e+04
149.2,1.306e+03,1.216e+03,2.018e+02,2.723e+03
150.7,1.499e+03,1.357e+03,1.823e+02,3.038e+03
152.3,1.563e+03,1.291e+03,1.543e+02,3.008e+03
153.8,1.563e+03,1.213e+03,1.215e+02,2.898e+03
155.3,1.584e+03,1.127e+03,9.187e+01,2.803e+03
156.9,1.721e+03,1.024e+03,7.531e+01,2.820e+03
158.4,1.932e+03,9.014e+02,5.992e+01,2.893e+03
160.0,2.123e+03,7.879e+02,4.945e+01,2.960e+03
161.5,2.135e+03,7.097e+02,5.563e+01,2.900e+03
163.0,2.025e+03,6.676e+02,6.359e+01,2.756e+03
164.6,1.925e+03,6.911e+02,7.146e+01,2.688e+03
166.1,1.726e+03,7.570e+02,8.000e+01,2.563e+03
167.6,1.543e+03,9.045e+02,9.194e+01,2.540e+03
169.2,1.396e+03,1.102e+03,1.154e+02,2.614e+03
170.7,1.257e+03,1.503e+03,1.280e+02,2.888e+03
172.3,1.524e+03,2.384e+03,1.304e+02,4.039e+03
173.8,1.752e+03,2.906e+03,1.118e+02,4.770e+03
175.3,1.787e+03,3.018e+03,9.780e+01,4.903e+03
176.9,1.704e+03,3.031e+03,9.164e+01,4.827e+03
178.4,1.889e+03,3.000e+03,9.042e+01,4.979e+03
180.0,2.318e+03,2.941e+03,8.372e+01,5.343e+03
181.5,3.062e+03,2.854e+03,8.804e+01,6.004e+03
183.0,3.498e+03,2.702e+03,9.505e+01,6.295e+03
184.6,3.131e+03,2.551e+03,6.909e+01,5.751e+03
186.1,3.284e+03,2.409e+03,5.599e+01,5.749e+03
187.6,3.834e+03,2.218e+03,6.934e+01,6.121e+03
189.2,4.309e+03,1.942e+03,9.522e+01,6.345e+03
190.7,4.170e+03,1.616e+03,9.797e+01,5.884e+03
192.3,3.828e+03,1.385e+03,8.695e+01,5.300e+03
193.8,3.866e+03,1.474e+03,7.644e+01,5.417e+03
195.3,3.567e+03,1.496e+03,7.558e+01,5.138e+03
196.9,3.034e+03,1.204e+03,9.706e+01,4.336e+03
198.4,2.962e+03,1.031e+03,1.159e+02,4.109e+03
199.9,3.035e+03,1.047e+03,1.155e+02,4.197e+03
